#Sl. No.	Position of reflector at maxima(cm) (forward)	Position of reflector at maxima(cm) (backward)	Mean (cm)
1	21.8	21.9	21.85
2	23.2	23.3	23.25
3	24.5	24.6	24.55
4	25.9	25.9	25.9
5	27.3	27.2	27.25
6	28.6	28.6	28.6
7	29.9	29.9	29.9
8	31.3	31.3	31.3
9	32.6	32.6	32.6
10	34	33.9	33.95
11	35.3	35.3	35.3
12	36.7	36.7	36.7
13	38.1	38.1	38.1
14	39.6	39.5	39.55
15	41	39.9	40.45
16	42.3	42.3	42.3
17	43.6	43.6	43.6
18	45	44.9	44.95
19	46.4	46.3	46.35
20	47.8	47.8	47.8